Wavelength (nm),Absorbance
2500,0.066701
2499,0.066559
2498,0.066742
2497,0.066506
2496,0.06645
2495,0.066588
2494,0.066474
2493,0.066294
2492,0.066406
2491,0.066503
2490,0.066574
2489,0.066621
2488,0.066752
2487,0.066934
2486,0.067164
2485,0.067307
2484,0.067438
2483,0.06736
2482,0.067528
2481,0.067526
2480,0.067129
2479,0.067416
2478,0.067288
2477,0.067104
2476,0.067306
2475,0.067322
2474,0.067508
2473,0.067404
2472,0.067187
2471,0.067232
2470,0.067276
2469,0.067309
2468,0.067326
2467,0.067306
2466,0.067347
2465,0.067051
2464,0.067325
2463,0.067278
2462,0.067379
2461,0.067262
2460,0.06725
2459,0.067165
2458,0.067173
2457,0.067157
2456,0.067119
2455,0.066902
2454,0.067242
2453,0.067111
2452,0.06722
2451,0.067344
2450,0.06727
2449,0.067275
2448,0.067337
2447,0.067312
2446,0.067309
2445,0.067262
2444,0.067021
2443,0.067273
2442,0.067271
2441,0.067294
2440,0.067213
2439,0.067038
2438,0.067282
2437,0.067336
2436,0.067421
2435,0.067363
2434,0.067395
2433,0.067327
2432,0.067358
2431,0.067394
2430,0.067428
2429,0.067168
2428,0.067451
2427,0.067458
2426,0.067467
2425,0.067468
2424,0.067495
2423,0.067319
2422,0.067236
2421,0.067283
2420,0.067329
2419,0.067348
2418,0.067369
2417,0.067362
2416,0.067372
2415,0.067454
2414,0.067511
2413,0.067397
2412,0.067352
2411,0.067347
2410,0.067596
2409,0.067655
2408,0.067616
2407,0.067554
2406,0.067629
2405,0.067673
2404,0.067667
2403,0.067624
2402,0.06758
2401,0.067526
2400,0.067556
2399,0.067579
2398,0.067531
2397,0.067535
2396,0.067572
2395,0.067617
2394,0.067594
2393,0.067414
2392,0.067392
2391,0.067536
2390,0.067491
2389,0.067489
2388,0.06749
2387,0.067436
2386,0.067467
2385,0.067499
2384,0.067577
2383,0.067549
2382,0.067381
2381,0.067421
2380,0.067557
2379,0.067596
2378,0.067685
2377,0.067616
2376,0.067573
2375,0.067648
2374,0.067623
2373,0.067625
2372,0.067471
2371,0.067429
2370,0.067579
2369,0.067603
2368,0.067669
2367,0.067663
2366,0.067632
2365,0.067709
2364,0.067772
2363,0.067813
2362,0.06774
2361,0.067718
2360,0.067641
2359,0.067598
2358,0.067685
2357,0.067712
2356,0.067738
2355,0.067811
2354,0.067784
2353,0.067735
2352,0.067761
2351,0.067784
2350,0.067764
2349,0.0677
2348,0.067701
2347,0.067688
2346,0.067657
2345,0.067713
2344,0.067716
2343,0.067904
2342,0.068071
2341,0.068052
2340,0.068083
2339,0.068077
2338,0.067891
2337,0.067843
2336,0.067603
2335,0.0675
2334,0.067544
2333,0.067623
2332,0.067552
2331,0.06758
2330,0.06761
2329,0.067732
2328,0.067697
2327,0.067605
2326,0.067572
2325,0.067508
2324,0.067529
2323,0.067501
2322,0.067491
2321,0.067617
2320,0.067599
2319,0.067463
2318,0.067478
2317,0.06758
2316,0.067604
2315,0.067398
2314,0.067434
2313,0.067528
2312,0.067509
2311,0.067486
2310,0.067436
2309,0.067507
2308,0.067531
2307,0.067524
2306,0.067206
2305,0.067469
2304,0.06744
2303,0.067585
2302,0.067672
2301,0.067483
2300,0.067464
2299,0.067533
2298,0.067568
2297,0.067601
2296,0.06752
2295,0.067617
2294,0.067788
2293,0.0677
2292,0.067742
2291,0.067788
2290,0.067733
2289,0.067647
2288,0.067686
2287,0.067644
2286,0.067911
2285,0.067663
2284,0.067704
2283,0.06777
2282,0.067389
2281,0.067632
2280,0.067741
2279,0.067826
2278,0.067695
2277,0.067563
2276,0.06755
2275,0.067764
2274,0.067673
2273,0.067526
2272,0.067629
2271,0.067421
2270,0.067524
2269,0.067358
2268,0.067546
2267,0.067393
2266,0.067385
2265,0.067545
2264,0.067421
2263,0.067138
2262,0.067262
2261,0.06744
2260,0.067129
2259,0.067257
2258,0.067191
2257,0.067119
2256,0.067081
2255,0.06717
2254,0.067312
2253,0.067109
2252,0.06716
2251,0.066876
2250,0.06712
2249,0.066904
2248,0.066896
2247,0.067077
2246,0.067128
2245,0.066938
2244,0.06651
2243,0.066729
2242,0.066916
2241,0.066526
2240,0.066619
2239,0.066477
2238,0.066452
2237,0.066458
2236,0.066422
2235,0.06653
2234,0.066513
2233,0.066296
2232,0.066187
2231,0.06604
2230,0.066192
2229,0.065951
2228,0.066073
2227,0.066067
2226,0.065755
2225,0.065875
2224,0.065863
2223,0.065866
2222,0.065578
2221,0.065497
2220,0.065525
2219,0.065645
2218,0.065452
2217,0.065439
2216,0.065528
2215,0.065281
2214,0.06519
2213,0.065144
2212,0.065175
2211,0.065195
2210,0.065045
2209,0.064906
2208,0.064925
2207,0.064945
2206,0.064852
2205,0.064851
2204,0.064581
2203,0.064608
2202,0.064578
2201,0.064504
2200,0.064627
2199,0.064557
2198,0.064442
2197,0.064341
2196,0.064328
2195,0.064252
2194,0.064129
2193,0.064194
2192,0.0642
2191,0.063956
2190,0.063765
2189,0.063754
2188,0.063801
2187,0.063822
2186,0.06362
2185,0.063621
2184,0.063662
2183,0.063675
2182,0.06365
2181,0.063462
2180,0.063319
2179,0.063163
2178,0.063177
2177,0.063138
2176,0.063196
2175,0.063182
2174,0.063145
2173,0.062989
2172,0.063054
2171,0.062947
2170,0.06281
2169,0.062765
2168,0.062847
2167,0.062729
2166,0.06255
2165,0.062538
2164,0.062474
2163,0.06251
2162,0.062413
2161,0.06232
2160,0.062202
2159,0.062314
2158,0.062401
2157,0.062364
2156,0.062378
2155,0.062127
2154,0.06206
2153,0.062102
2152,0.062078
2151,0.061946
2150,0.061943
2149,0.061962
2148,0.061782
2147,0.061632
2146,0.061637
2145,0.061653
2144,0.061684
2143,0.061627
2142,0.061475
2141,0.061434
2140,0.061373
2139,0.061301
2138,0.061287
2137,0.061316
2136,0.06122
2135,0.061097
2134,0.061077
2133,0.061053
2132,0.061069
2131,0.060846
2130,0.060697
2129,0.060795
2128,0.060855
2127,0.060759
2126,0.060595
2125,0.060603
2124,0.060677
2123,0.060573
2122,0.060518
2121,0.060403
2120,0.060409
2119,0.060337
2118,0.060277
2117,0.06036
2116,0.06027
2115,0.060184
2114,0.060194
2113,0.060192
2112,0.060193
2111,0.060138
2110,0.059936
2109,0.059882
2108,0.059875
2107,0.059849
2106,0.059683
2105,0.059731
2104,0.059821
2103,0.059696
2102,0.05958
2101,0.059683
2100,0.059471
2099,0.059361
2098,0.05942
2097,0.059408
2096,0.059421
2095,0.059214
2094,0.059208
2093,0.059394
2092,0.059318
2091,0.059119
2090,0.059003
2089,0.058985
2088,0.058951
2087,0.058963
2086,0.059099
2085,0.058954
2084,0.058691
2083,0.058759
2082,0.058815
2081,0.058922
2080,0.058789
2079,0.058684
2078,0.05868
2077,0.058807
2076,0.058651
2075,0.058628
2074,0.058452
2073,0.058545
2072,0.058424
2071,0.058381
2070,0.058174
2069,0.058464
2068,0.058357
2067,0.058361
2066,0.05832
2065,0.058337
2064,0.05839
2063,0.058119
2062,0.058065
2061,0.058276
2060,0.05814
2059,0.058111
2058,0.057972
2057,0.057801
2056,0.058122
2055,0.058004
2054,0.057903
2053,0.057924
2052,0.05803
2051,0.058016
2050,0.05789
2049,0.058033
2048,0.058036
2047,0.057957
2046,0.058036
2045,0.05796
2044,0.05755
2043,0.057793
2042,0.057678
2041,0.057846
2040,0.057728
2039,0.057697
2038,0.057594
2037,0.057673
2036,0.057719
2035,0.057826
2034,0.057527
2033,0.057749
2032,0.057571
2031,0.057654
2030,0.057505
2029,0.057727
2028,0.057674
2027,0.057593
2026,0.057254
2025,0.057301
2024,0.057481
2023,0.057406
2022,0.057398
2021,0.057558
2020,0.057376
2019,0.057344
2018,0.057434
2017,0.057317
2016,0.057442
2015,0.057248
2014,0.057439
2013,0.057349
2012,0.057377
2011,0.057431
2010,0.057456
2009,0.057123
2008,0.057363
2007,0.057246
2006,0.057232
2005,0.05727
2004,0.057273
2003,0.057275
2002,0.057222
2001,0.057431
2000,0.057397
1999,0.057346
1998,0.05733
1997,0.057337
1996,0.057176
1995,0.057358
1994,0.057124
1993,0.05731
1992,0.05701
1991,0.057225
1990,0.057136
1989,0.057244
1988,0.057162
1987,0.057146
1986,0.057124
1985,0.05703
1984,0.057139
1983,0.057041
1982,0.057072
1981,0.057218
1980,0.057047
1979,0.05702
1978,0.057039
1977,0.057029
1976,0.057094
1975,0.057164
1974,0.057061
1973,0.057083
1972,0.057062
1971,0.057071
1970,0.057307
1969,0.057171
1968,0.0571
1967,0.057312
1966,0.057162
1965,0.057151
1964,0.057356
1963,0.057168
1962,0.057162
1961,0.057137
1960,0.057252
1959,0.057028
1958,0.057172
1957,0.057239
1956,0.057412
1955,0.057261
1954,0.057366
1953,0.057778
1952,0.057492
1951,0.05758
1950,0.057407
1949,0.057567
1948,0.057428
1947,0.05744
1946,0.057141
1945,0.057233
1944,0.057053
1943,0.056851
1942,0.056888
1941,0.05687
1940,0.057089
1939,0.057185
1938,0.05726
1937,0.057255
1936,0.057402
1935,0.057619
1934,0.057925
1933,0.058405
1932,0.058768
1931,0.059019
1930,0.059339
1929,0.059816
1928,0.059725
1927,0.059182
1926,0.059108
1925,0.059041
1924,0.058986
1923,0.058961
1922,0.059287
1921,0.059384
1920,0.058992
1919,0.058962
1918,0.059038
1917,0.058975
1916,0.059105
1915,0.059102
1914,0.058642
1913,0.057553
1912,0.056386
1911,0.055782
1910,0.055505
1909,0.055436
1908,0.055608
1907,0.055395
1906,0.055241
1905,0.055572
1904,0.055527
1903,0.056404
1902,0.057522
1901,0.058331
1900,0.059028
1899,0.059309
1898,0.059579
1897,0.058957
1896,0.058616
1895,0.058694
1894,0.058431
1893,0.058451
1892,0.058149
1891,0.057948
1890,0.058047
1889,0.058236
1888,0.058524
1887,0.058272
1886,0.058269
1885,0.058462
1884,0.05831
1883,0.058155
1882,0.058195
1881,0.058187
1880,0.057955
1879,0.057604
1878,0.056847
1877,0.056309
1876,0.056185
1875,0.056054
1874,0.055916
1873,0.056062
1872,0.056183
1871,0.056082
1870,0.056785
1869,0.057352
1868,0.057049
1867,0.056895
1866,0.056967
1865,0.056779
1864,0.057311
1863,0.057014
1862,0.056186
1861,0.056029
1860,0.05583
1859,0.054881
1858,0.054283
1857,0.054382
1856,0.054464
1855,0.054567
1854,0.054767
1853,0.055226
1852,0.054954
1851,0.054661
1850,0.054369
1849,0.054332
1848,0.054086
1847,0.052984
1846,0.052151
1845,0.052937
1844,0.053953
1843,0.054715
1842,0.054747
1841,0.054323
1840,0.054587
1839,0.055107
1838,0.055632
1837,0.055314
1836,0.054443
1835,0.054662
1834,0.054019
1833,0.053662
1832,0.053327
1831,0.052679
1830,0.052141
1829,0.052041
1828,0.052835
1827,0.053261
1826,0.052737
1825,0.051683
1824,0.051402
1823,0.051538
1822,0.051819
1821,0.051276
1820,0.050806
1819,0.050752
1818,0.051112
1817,0.051906
1816,0.051857
1815,0.051958
1814,0.052122
1813,0.052547
1812,0.053036
1811,0.053293
1810,0.053188
1809,0.053912
1808,0.05374
1807,0.053778
1806,0.053815
1805,0.053897
1804,0.054731
1803,0.05446
1802,0.05433
1801,0.05455
1800,0.054589
1799,0.054383
1798,0.054406
1797,0.054112
1796,0.053908
1795,0.054002
1794,0.053689
1793,0.054014
1792,0.054016
1791,0.053622
1790,0.053886
1789,0.054153
1788,0.053584
1787,0.053535
1786,0.053868
1785,0.053722
1784,0.05359
1783,0.053851
1782,0.053423
1781,0.053386
1780,0.053461
1779,0.053394
1778,0.053332
1777,0.053421
1776,0.053604
1775,0.053337
1774,0.053535
1773,0.053264
1772,0.053285
1771,0.053202
1770,0.053147
1769,0.053288
1768,0.053205
1767,0.053033
1766,0.053113
1765,0.053146
1764,0.053021
1763,0.053044
1762,0.053101
1761,0.053037
1760,0.053009
1759,0.053038
1758,0.05288
1757,0.052901
1756,0.052981
1755,0.052882
1754,0.052725
1753,0.052665
1752,0.052724
1751,0.052773
1750,0.052805
1749,0.052664
1748,0.052503
1747,0.052294
1746,0.052556
1745,0.052654
1744,0.052256
1743,0.052452
1742,0.052528
1741,0.05225
1740,0.052455
1739,0.052396
1738,0.052409
1737,0.05235
1736,0.052385
1735,0.052504
1734,0.052189
1733,0.05219
1732,0.05223
1731,0.052065
1730,0.052266
1729,0.052251
1728,0.052057
1727,0.051884
1726,0.052192
1725,0.05212
1724,0.051869
1723,0.052031
1722,0.052083
1721,0.051825
1720,0.051812
1719,0.052025
1718,0.051758
1717,0.051577
1716,0.051702
1715,0.051664
1714,0.051546
1713,0.051703
1712,0.051899
1711,0.051581
1710,0.051477
1709,0.051586
1708,0.051662
1707,0.051518
1706,0.051426
1705,0.051436
1704,0.051366
1703,0.051195
1702,0.05121
1701,0.051425
1700,0.051269
1699,0.051129
1698,0.05114
1697,0.051158
1696,0.051085
1695,0.051016
1694,0.051027
1693,0.051018
1692,0.050932
1691,0.050895
1690,0.051056
1689,0.050997
1688,0.050893
1687,0.050677
1686,0.050939
1685,0.050845
1684,0.050713
1683,0.050654
1682,0.05081
1681,0.050658
1680,0.05055
1679,0.050546
1678,0.050538
1677,0.050481
1676,0.050474
1675,0.050367
1674,0.050454
1673,0.050449
1672,0.050306
1671,0.050194
1670,0.050174
1669,0.050146
1668,0.049938
1667,0.049858
1666,0.049903
1665,0.04988
1664,0.049781
1663,0.049729
1662,0.049707
1661,0.04982
1660,0.049847
1659,0.049647
1658,0.049518
1657,0.049477
1656,0.049491
1655,0.049664
1654,0.049697
1653,0.04946
1652,0.0494
1651,0.049389
1650,0.049251
1649,0.049121
1648,0.049117
1647,0.049148
1646,0.049229
1645,0.049195
1644,0.049065
1643,0.049107
1642,0.04905
1641,0.048888
1640,0.048801
1639,0.0488
1638,0.048803
1637,0.048703
1636,0.048709
1635,0.048687
1634,0.048635
1633,0.048667
1632,0.048499
1631,0.048336
1630,0.048452
1629,0.048384
1628,0.048277
1627,0.048247
1626,0.04817
1625,0.04803
1624,0.047983
1623,0.048059
1622,0.048108
1621,0.047964
1620,0.047719
1619,0.047642
1618,0.047784
1617,0.047794
1616,0.047618
1615,0.047533
1614,0.047437
1613,0.047496
1612,0.047611
1611,0.047424
1610,0.047267
1609,0.047211
1608,0.047208
1607,0.047315
1606,0.047188
1605,0.046916
1604,0.046861
1603,0.047016
1602,0.047001
1601,0.047094
1600,0.046899
1599,0.046729
1598,0.046711
1597,0.046704
1596,0.046591
1595,0.046546
1594,0.046441
1593,0.046191
1592,0.046231
1591,0.046243
1590,0.046342
1589,0.046333
1588,0.046071
1587,0.045805
1586,0.045684
1585,0.045952
1584,0.045939
1583,0.04591
1582,0.045855
1581,0.045598
1580,0.045594
1579,0.04539
1578,0.045379
1577,0.045408
1576,0.045373
1575,0.045438
1574,0.045104
1573,0.044864
1572,0.044814
1571,0.044889
1570,0.04498
1569,0.045076
1568,0.044703
1567,0.044649
1566,0.044456
1565,0.044357
1564,0.044447
1563,0.044696
1562,0.044443
1561,0.044325
1560,0.044089
1559,0.043941
1558,0.04394
1557,0.043766
1556,0.043754
1555,0.044003
1554,0.04365
1553,0.043551
1552,0.043348
1551,0.043282
1550,0.043201
1549,0.043191
1548,0.043073
1547,0.043238
1546,0.043099
1545,0.042929
1544,0.043009
1543,0.042623
1542,0.042539
1541,0.042461
1540,0.042332
1539,0.042331
1538,0.042471
1537,0.042447
1536,0.0422
1535,0.042052
1534,0.041946
1533,0.041745
1532,0.041633
1531,0.041528
1530,0.041597
1529,0.041863
1528,0.041691
1527,0.041641
1526,0.041402
1525,0.041211
1524,0.041033
1523,0.040918
1522,0.04073
1521,0.041054
1520,0.040672
1519,0.040842
1518,0.040808
1517,0.040683
1516,0.040466
1515,0.040755
1514,0.040182
1513,0.040094
1512,0.03985
1511,0.039801
1510,0.039674
1509,0.039862
1508,0.039239
1507,0.039423
1506,0.039405
1505,0.039319
1504,0.039419
1503,0.039282
1502,0.039161
1501,0.039103
1500,0.039098
1499,0.038652
1498,0.03872
1497,0.038464
1496,0.038282
1495,0.038181
1494,0.038308
1493,0.038077
1492,0.037926
1491,0.037734
1490,0.037809
1489,0.037702
1488,0.037641
1487,0.037779
1486,0.037479
1485,0.037482
1484,0.037257
1483,0.037163
1482,0.036993
1481,0.036856
1480,0.036744
1479,0.036639
1478,0.03641
1477,0.036187
1476,0.03623
1475,0.036051
1474,0.035803
1473,0.035635
1472,0.035587
1471,0.035426
1470,0.035215
1469,0.035017
1468,0.035061
1467,0.035244
1466,0.035265
1465,0.034978
1464,0.034921
1463,0.034812
1462,0.034889
1461,0.034453
1460,0.03418
1459,0.033939
1458,0.034194
1457,0.034139
1456,0.033852
1455,0.033713
1454,0.033683
1453,0.033658
1452,0.033543
1451,0.033207
1450,0.033155
1449,0.03305
1448,0.032916
1447,0.032614
1446,0.03238
1445,0.032125
1444,0.032158
1443,0.032219
1442,0.032218
1441,0.032117
1440,0.031822
1439,0.031681
1438,0.031501
1437,0.031454
1436,0.031435
1435,0.031506
1434,0.031266
1433,0.031212
1432,0.030955
1431,0.03084
1430,0.030772
1429,0.030435
1428,0.030184
1427,0.030237
1426,0.03021
1425,0.030051
1424,0.029826
1423,0.029624
1422,0.029615
1421,0.029529
1420,0.029262
1419,0.029138
1418,0.029125
1417,0.029014
1416,0.028927
1415,0.028904
1414,0.028723
1413,0.028488
1412,0.028624
1411,0.02846
1410,0.028299
1409,0.028107
1408,0.027998
1407,0.028044
1406,0.027773
1405,0.027655
1404,0.027639
1403,0.02773
1402,0.027728
1401,0.027382
1400,0.026903
1399,0.026532
1398,0.026861
1397,0.027042
1396,0.026497
1395,0.026052
1394,0.025718
1393,0.025688
1392,0.025725
1391,0.02575
1390,0.026036
1389,0.026012
1388,0.025611
1387,0.025397
1386,0.025516
1385,0.025184
1384,0.024926
1383,0.025096
1382,0.024666
1381,0.024782
1380,0.025156
1379,0.025048
1378,0.024964
1377,0.024616
1376,0.024333
1375,0.024301
1374,0.024109
1373,0.024051
1372,0.023618
1371,0.023865
1370,0.024273
1369,0.024152
1368,0.023481
1367,0.022911
1366,0.023283
1365,0.023595
1364,0.023825
1363,0.023845
1362,0.022544
1361,0.022005
1360,0.022368
1359,0.023006
1358,0.023505
1357,0.023369
1356,0.022838
1355,0.02238
1354,0.021856
1353,0.021833
1352,0.021885
1351,0.022323
1350,0.022124
1349,0.021889
1348,0.021807
1347,0.021826
1346,0.021899
1345,0.021964
1344,0.021941
1343,0.021774
1342,0.021549
1341,0.021389
1340,0.021507
1339,0.02152
1338,0.021388
1337,0.021274
1336,0.02124
1335,0.021362
1334,0.021008
1333,0.020908
1332,0.020956
1331,0.020895
1330,0.020938
1329,0.020741
1328,0.020689
1327,0.020666
1326,0.020629
1325,0.020605
1324,0.020527
1323,0.02052
1322,0.020546
1321,0.020356
1320,0.020286
1319,0.020246
1318,0.020147
1317,0.020068
1316,0.019988
1315,0.020086
1314,0.019945
1313,0.019982
1312,0.019942
1311,0.019931
1310,0.019964
1309,0.019823
1308,0.019861
1307,0.019916
1306,0.019731
1305,0.019863
1304,0.019773
1303,0.019815
1302,0.019759
1301,0.019877
1300,0.019565
1299,0.019655
1298,0.019591
1297,0.019615
1296,0.019855
1295,0.019514
1294,0.019532
1293,0.019757
1292,0.019614
1291,0.019652
1290,0.019574
1289,0.019708
1288,0.01961
1287,0.019405
1286,0.019611
1285,0.019673
1284,0.019574
1283,0.019718
1282,0.019655
1281,0.0197
1280,0.019652
1279,0.019668
1278,0.019702
1277,0.019721
1276,0.019939
1275,0.019784
1274,0.019875
1273,0.019887
1272,0.019897
1271,0.019954
1270,0.020099
1269,0.019894
1268,0.020049
1267,0.020128
1266,0.020116
1265,0.020155
1264,0.020296
1263,0.020464
1262,0.020542
1261,0.020446
1260,0.020513
1259,0.020675
1258,0.020601
1257,0.020977
1256,0.020774
1255,0.020777
1254,0.020683
1253,0.020762
1252,0.020913
1251,0.021147
1250,0.021034
1249,0.021044
1248,0.021167
1247,0.02116
1246,0.021106
1245,0.021238
1244,0.021367
1243,0.021379
1242,0.021449
1241,0.021431
1240,0.021569
1239,0.02163
1238,0.021648
1237,0.02168
1236,0.02164
1235,0.021719
1234,0.0218
1233,0.021777
1232,0.021679
1231,0.021979
1230,0.021995
1229,0.022038
1228,0.022011
1227,0.022025
1226,0.022044
1225,0.022174
1224,0.022231
1223,0.022307
1222,0.022311
1221,0.022196
1220,0.022298
1219,0.022374
1218,0.022323
1217,0.022521
1216,0.022453
1215,0.02245
1214,0.022462
1213,0.022476
1212,0.022619
1211,0.022562
1210,0.022348
1209,0.022232
1208,0.022617
1207,0.022509
1206,0.022562
1205,0.022577
1204,0.022471
1203,0.022479
1202,0.022492
1201,0.022387
1200,0.022468
1199,0.022506
1198,0.022544
1197,0.022531
1196,0.022539
1195,0.022539
1194,0.022493
1193,0.022455
1192,0.022451
1191,0.022579
1190,0.022486
1189,0.022329
1188,0.022259
1187,0.022402
1186,0.02237
1185,0.022358
1184,0.022484
1183,0.022499
1182,0.022402
1181,0.02232
1180,0.022388
1179,0.022468
1178,0.022425
1177,0.022402
1176,0.022393
1175,0.022388
1174,0.022485
1173,0.02256
1172,0.022592
1171,0.022629
1170,0.022559
1169,0.022463
1168,0.022457
1167,0.022478
1166,0.022433
1165,0.022484
1164,0.02259
1163,0.02256
1162,0.022483
1161,0.022539
1160,0.022557
1159,0.022484
1158,0.022494
1157,0.022608
1156,0.022669
1155,0.022632
1154,0.022682
1153,0.022687
1152,0.02271
1151,0.022749
1150,0.022653
1149,0.022704
1148,0.022846
1147,0.022813
1146,0.022746
1145,0.022705
1144,0.022727
1143,0.02289
1142,0.022957
1141,0.023001
1140,0.023029
1139,0.023007
1138,0.022999
1137,0.023039
1136,0.023125
1135,0.023175
1134,0.02321
1133,0.02309
1132,0.023117
1131,0.0231
1130,0.023126
1129,0.023221
1128,0.02317
1127,0.023123
1126,0.023274
1125,0.023469
1124,0.023532
1123,0.023409
1122,0.023451
1121,0.023505
1120,0.023594
1119,0.023639
1118,0.023685
1117,0.023683
1116,0.023721
1115,0.023659
1114,0.023655
1113,0.023681
1112,0.023858
1111,0.023958
1110,0.023929
1109,0.024003
1108,0.024132
1107,0.024194
1106,0.024133
1105,0.02414
1104,0.024232
1103,0.024319
1102,0.024285
1101,0.024253
1100,0.024361
1099,0.024413
1098,0.024578
1097,0.02446
1096,0.024511
1095,0.024621
1094,0.024607
1093,0.024668
1092,0.02473
1091,0.024771
1090,0.024709
1089,0.024829
1088,0.024943
1087,0.024906
1086,0.024929
1085,0.025203
1084,0.025065
1083,0.025161
1082,0.025109
1081,0.025156
1080,0.025286
1079,0.025222
1078,0.025391
1077,0.025507
1076,0.025473
1075,0.025533
1074,0.025524
1073,0.025495
1072,0.025636
1071,0.025764
1070,0.025739
1069,0.025934
1068,0.025801
1067,0.025713
1066,0.02584
1065,0.025967
1064,0.025963
1063,0.026074
1062,0.026072
1061,0.026135
1060,0.026273
1059,0.026158
1058,0.026241
1057,0.026386
1056,0.026407
1055,0.026451
1054,0.026489
1053,0.026586
1052,0.026532
1051,0.026707
1050,0.026596
1049,0.026921
1048,0.026842
1047,0.026842
1046,0.026818
1045,0.026881
1044,0.026929
1043,0.027058
1042,0.027025
1041,0.027145
1040,0.027154
1039,0.027138
1038,0.027261
1037,0.027407
1036,0.027447
1035,0.02739
1034,0.027446
1033,0.027457
1032,0.02767
1031,0.027698
1030,0.027597
1029,0.027669
1028,0.027796
1027,0.027753
1026,0.027849
1025,0.028107
1024,0.027974
1023,0.02803
1022,0.028043
1021,0.028084
1020,0.028194
1019,0.0281
1018,0.028271
1017,0.028384
1016,0.028514
1015,0.028388
1014,0.028388
1013,0.028498
1012,0.02867
1011,0.028625
1010,0.02874
1009,0.028841
1008,0.028849
1007,0.028791
1006,0.028936
1005,0.028804
1004,0.02887
1003,0.028974
1002,0.029162
1001,0.029019
1000,0.029068
999,0.029126
998,0.029226
997,0.029183
996,0.029485
995,0.029323
994,0.029504
993,0.029438
992,0.029273
991,0.029736
990,0.029639
989,0.029663
988,0.029675
987,0.029692
986,0.029808
985,0.029761
984,0.029785
983,0.02983
982,0.03
981,0.029938
980,0.030104
979,0.030269
978,0.030055
977,0.030047
976,0.030177
975,0.030163
974,0.03017
973,0.030363
972,0.030342
971,0.030361
970,0.03041
969,0.03054
968,0.030506
967,0.030475
966,0.030427
965,0.030539
964,0.030606
963,0.030634
962,0.030635
961,0.030692
960,0.03074
959,0.030829
958,0.0309
957,0.03078
956,0.030834
955,0.031
954,0.031035
953,0.030976
952,0.03097
951,0.031032
950,0.031103
949,0.031119
948,0.031046
947,0.031112
946,0.031264
945,0.031318
944,0.03131
943,0.03135
942,0.031294
941,0.031362
940,0.031412
939,0.031398
938,0.031441
937,0.031559
936,0.031444
935,0.031589
934,0.031619
933,0.031546
932,0.031617
931,0.031655
930,0.031721
929,0.031722
928,0.031794
927,0.031744
926,0.031642
925,0.031797
924,0.03171
923,0.031758
922,0.031967
921,0.032008
920,0.031968
919,0.031963
918,0.032076
917,0.032059
916,0.032028
915,0.032003
914,0.031962
913,0.032013
912,0.031907
911,0.031853
910,0.032061
909,0.032105
908,0.031973
907,0.032119
906,0.032252
905,0.032223
904,0.032103
903,0.03208
902,0.032154
901,0.032213
900,0.032189
899,0.03217
898,0.032184
897,0.032231
896,0.032353
895,0.03234
894,0.032292
893,0.032269
892,0.032317
891,0.032331
890,0.032437
889,0.032439
888,0.032397
887,0.03252
886,0.032495
885,0.032425
884,0.032392
883,0.032463
882,0.032572
881,0.032591
880,0.032594
879,0.032626
878,0.03251
877,0.032506
876,0.032565
875,0.032534
874,0.032591
873,0.032663
872,0.032652
871,0.032557
870,0.032633
869,0.032563
868,0.032587
867,0.032652
866,0.032686
865,0.032672
864,0.032717
863,0.032723
862,0.032719
861,0.032707
860,0.032457
859,0.032348
858,0.031976
857,0.031946
856,0.032116
855,0.031033
854,0.031121
853,0.031425
852,0.031746
851,0.031099
850,0.03115
849,0.03138
848,0.031395
847,0.031375
846,0.031268
845,0.031094
844,0.030928
843,0.030803
842,0.031016
841,0.0307
840,0.030604
839,0.030841
838,0.030686
837,0.030607
836,0.030791
835,0.030472
834,0.03023
833,0.030322
832,0.030354
831,0.030226
830,0.030102
829,0.030141
828,0.029738
827,0.029804
826,0.029807
825,0.029993
824,0.029982
823,0.029802
822,0.029414
821,0.030043
820,0.029947
819,0.029569
818,0.029549
817,0.029393
816,0.029387
815,0.029293
814,0.029067
813,0.02941
812,0.028985
811,0.029282
810,0.029215
809,0.029348
808,0.029106
807,0.028928
806,0.028773
805,0.028541
804,0.028717
803,0.028811
802,0.028608
801,0.028584
800,0.028472
799,0.028524
798,0.028299
797,0.028175
796,0.028218
795,0.028002
794,0.028118
793,0.028158
792,0.028241
791,0.027809
790,0.027805
789,0.027509
788,0.027498
787,0.027575
786,0.0273
785,0.027068
784,0.027501
783,0.027032
782,0.027461
781,0.027091
780,0.027123
779,0.026851
778,0.026682
777,0.026625
776,0.026939
775,0.026212
774,0.026047
773,0.026241
772,0.026013
771,0.026153
770,0.025794
769,0.026064
768,0.025657
767,0.025784
766,0.025885
765,0.025345
764,0.025613
763,0.025624
762,0.025219
761,0.024919
760,0.025157
759,0.025429
758,0.025045
757,0.02495
756,0.024718
755,0.024802
754,0.024672
753,0.024598
752,0.024489
751,0.02454
750,0.024372
749,0.024167
748,0.024151
747,0.024164
746,0.024151
745,0.024022
744,0.023728
743,0.023639
742,0.023327
741,0.023512
740,0.023713
739,0.023442
738,0.023341
737,0.023162
736,0.023211
735,0.022907
734,0.023003
733,0.023093
732,0.022936
731,0.022825
730,0.022821
729,0.022696
728,0.022415
727,0.022505
726,0.02237
725,0.022391
724,0.022453
723,0.022272
722,0.022217
721,0.021953
720,0.022014
719,0.022056
718,0.021959
717,0.021622
716,0.021646
715,0.021472
714,0.021385
713,0.02126
712,0.021455
711,0.021289
710,0.021115
709,0.021099
708,0.020993
707,0.021183
706,0.020806
705,0.020964
704,0.020801
703,0.020703
702,0.020802
701,0.02057
700,0.020596
699,0.020776
698,0.020964
697,0.020408
696,0.020339
695,0.020275
694,0.020299
693,0.020326
692,0.020312
691,0.02034
690,0.020332
689,0.020417
688,0.020186
687,0.020122
686,0.020167
685,0.02007
684,0.020128
683,0.020238
682,0.020196
681,0.020119
680,0.02027
679,0.020304
678,0.019993
677,0.020033
676,0.01993
675,0.01973
674,0.019783
673,0.019787
672,0.019848
671,0.019845
670,0.019803
669,0.020002
668,0.019975
667,0.019722
666,0.019778
665,0.019972
664,0.019859
663,0.019817
662,0.019942
661,0.02001
660,0.020264
659,0.020168
658,0.020116
657,0.020069
656,0.020001
655,0.019895
654,0.019993
653,0.020205
652,0.020258
651,0.020267
650,0.020251
649,0.020206
648,0.020236
647,0.020309
646,0.020529
645,0.020417
644,0.020405
643,0.020748
642,0.020929
641,0.020811
640,0.020763
639,0.020827
638,0.02103
637,0.021006
636,0.020933
635,0.020959
634,0.021212
633,0.021424
632,0.021409
631,0.021624
630,0.021748
629,0.021942
628,0.021927
627,0.021899
626,0.02208
625,0.022173
624,0.022106
623,0.022305
622,0.022588
621,0.02269
620,0.022833
619,0.023017
618,0.023203
617,0.023324
616,0.023279
615,0.023254
614,0.023583
613,0.023673
612,0.023748
611,0.023782
610,0.023919
609,0.024113
608,0.024114
607,0.024044
606,0.024344
605,0.024435
604,0.024325
603,0.024526
602,0.02466
601,0.024747
600,0.024792
599,0.024993
598,0.025044
597,0.025077
596,0.02497
595,0.024882
594,0.024911
593,0.025068
592,0.025015
591,0.025071
590,0.025314
589,0.025226
588,0.025081
587,0.025135
586,0.024986
585,0.025162
584,0.02521
583,0.025052
582,0.025027
581,0.024996
580,0.025045
579,0.025025
578,0.025033
577,0.025076
576,0.024958
575,0.02511
574,0.025007
573,0.024852
572,0.024644
571,0.024894
570,0.024759
569,0.024785
568,0.024555
567,0.024692
566,0.024661
565,0.024461
564,0.024465
563,0.024395
562,0.024302
561,0.024094
560,0.024144
559,0.02411
558,0.024024
557,0.023817
556,0.023659
555,0.023658
554,0.023345
553,0.023313
552,0.023251
551,0.023259
550,0.022893
549,0.022631
548,0.022598
547,0.022253
546,0.022094
545,0.021913
544,0.021784
543,0.021485
542,0.021246
541,0.020807
540,0.02079
539,0.020434
538,0.020785
537,0.02009
536,0.019772
535,0.019434
534,0.019023
533,0.018721
532,0.018553
531,0.018442
530,0.018093
529,0.017582
528,0.0173
527,0.016975
526,0.01655
525,0.016113
524,0.015916
523,0.015585
522,0.015143
521,0.014497
520,0.014242
519,0.01404
518,0.013582
517,0.013127
516,0.01266
515,0.012096
514,0.011714
513,0.011181
512,0.010766
511,0.010229
510,0.009985
509,0.009433
508,0.008817
507,0.008291
506,0.007691
505,0.007422
504,0.007166
503,0.006378
502,0.005723
501,0.005311
500,0.004924
499,0.004176
498,0.003787
497,0.003424
496,0.002781
495,0.002142
494,0.001457
493,0.000852
492,0.000046
491,-0.000192
490,-0.001047
489,-0.001641
488,-0.002456
487,-0.00324
486,-0.003894
485,-0.004552
484,-0.005129
483,-0.005941
482,-0.006747
481,-0.007236
480,-0.00847
479,-0.008756
478,-0.009637
477,-0.010478
476,-0.01128
475,-0.011908
474,-0.012803
473,-0.013547
472,-0.014283
471,-0.014926
470,-0.01554
469,-0.016232
468,-0.017266
467,-0.017786
466,-0.01867
465,-0.01933
464,-0.019996
463,-0.020656
462,-0.02142
461,-0.02223
460,-0.023142
459,-0.023574
458,-0.024295
457,-0.024951
456,-0.025662
455,-0.026228
454,-0.027009
453,-0.027756
452,-0.028394
451,-0.028994
450,-0.029899
449,-0.030319
448,-0.03096
447,-0.031477
446,-0.03225
445,-0.03288
444,-0.033521
443,-0.033932
442,-0.034538
441,-0.035142
440,-0.035794
439,-0.036205
438,-0.036585
437,-0.036999
436,-0.037419
435,-0.037658
434,-0.038519
433,-0.038999
432,-0.039209
431,-0.039374
430,-0.039643
429,-0.03995
428,-0.040331
427,-0.040723
426,-0.040854
425,-0.040633
424,-0.040774
423,-0.041018
422,-0.041234
421,-0.041281
420,-0.041348
419,-0.041077
418,-0.041037
417,-0.040979
416,-0.040768
415,-0.040566
414,-0.04068
413,-0.040168
412,-0.039802
411,-0.039511
410,-0.039063
409,-0.038721
408,-0.038404
407,-0.038233
406,-0.037827
405,-0.036915
404,-0.036415
403,-0.035789
402,-0.035319
401,-0.034622
400,-0.03402
399,-0.03335
398,-0.032544
397,-0.03168
396,-0.030912
395,-0.03002
394,-0.02939
393,-0.028466
392,-0.027487
391,-0.026394
390,-0.025707
389,-0.025043
388,-0.023929
387,-0.022922
386,-0.021862
385,-0.020829
384,-0.019838
383,-0.018726
382,-0.018024
381,-0.017124
380,-0.016221
379,-0.015058
378,-0.013798
377,-0.012581
376,-0.011775
375,-0.010835
374,-0.010093
373,-0.009388
372,-0.00845
371,-0.007594
370,-0.006767
369,-0.005743
368,-0.005087
367,-0.004596
366,-0.003851
365,-0.003029
364,-0.002406
363,-0.001934
362,-0.001349
361,-0.000978
360,-0.000648
359,-0.000212
358,0.000124
357,0.000541
356,0.000783
355,0.000805
354,0.000813
353,0.000905
352,0.000999
351,0.000983
350,0.00101
349,0.000792
348,0.000438
347,0.000168
346,-0.000385
345,-0.000557
344,-0.00069
343,-0.001228
342,-0.00171
341,-0.002262
340,-0.002835
339,-0.003353
338,-0.003802
337,-0.004374
336,-0.005215
335,-0.005923
334,-0.006475
333,-0.007122
332,-0.007962
331,-0.008518
330,-0.009287
329,-0.010081
328,-0.010727
327,-0.011283
326,-0.011858
325,-0.012675
324,-0.013336
323,-0.013938
322,-0.014624
321,-0.015256
320,-0.0158
319,-0.016342
318,-0.016289
317,-0.016442
316,-0.016769
315,-0.017242
314,-0.017578
313,-0.017879
312,-0.018117
311,-0.017951
310,-0.018201
309,-0.018429
308,-0.018327
307,-0.018096
306,-0.017844
305,-0.017433
304,-0.017159
303,-0.016999
302,-0.016541
301,-0.015564
300,-0.014638
299,-0.013357
298,-0.012127
297,-0.010783
296,-0.009776
295,-0.007665
294,-0.006149
293,-0.003588
292,-0.001948
291,0.001079
290,0.002727
289,0.005265
288,0.006813
287,0.011106
286,0.012034
285,0.016022
284,0.018632
283,0.017733
282,0.022312
281,0.016439
280,0.014925
279,0.0201
278,0.017141
277,-0.01681
276,-0.038156
275,-0.07547
274,-0.173596
273,-0.235245
272,-0.311684
271,-0.360285
270,-0.378631
269,-0.463266
268,-0.451827
267,-0.448733
266,-0.398272
265,-0.442843
264,-0.415453
263,-0.363894
262,-0.396591
261,-0.360201
260,-0.319615
259,-0.352011
258,-0.302201
257,-0.320125
256,-0.279876
255,-0.303373
254,-0.260497
253,-0.242988
252,-0.271513
251,-0.210697
250,-0.21559
249,-0.203903
248,-0.16386
247,-0.149706
246,-0.164246
245,-0.138803
244,-0.12883
243,-0.122832
242,-0.131503
241,-0.100987
240,-0.090882
239,-0.097962
238,-0.054835
237,-0.039123
236,-0.067272
235,-0.026036
234,-0.040817
233,-0.040917
232,-0.022508
231,0.003535
230,0.03535
229,0.070979
228,0.108462
227,0.14584
226,0.181153
225,0.212442
224,0.237747
223,0.255109
222,0.262569
221,0.291219
220,0.290681
219,0.305474
218,0.353446
217,0.343905
216,0.383091
215,0.366758
214,0.40703
213,0.399115
212,0.442363
211,0.427344
210,0.460256
209,0.424832
208,0.464088
207,0.491896
206,0.498102
205,0.505367
204,0.568255
203,0.512998
202,0.575989
201,0.570221
200,0.602021
199,0.563461
198,0.625941
197,0.58184
196,0.594773
195,0.589511
194,0.558433
193,0.541036
192,0.556619
191,0.546362
190,0.586505
